3997.64946,0.00000
3996.22275,0.00005
3994.79604,0.00011
3993.36932,0.00015
3991.94261,0.00012
3990.51590,0.00004
3989.08919,0.00000
3987.66247,0.00002
3986.23576,0.00015
3984.80905,0.00029
3983.38233,0.00036
3981.95562,0.00037
3980.52891,0.00035
3979.10220,0.00033
3977.67548,0.00030
3976.24877,0.00024
3974.82206,0.00018
3973.39534,0.00015
3971.96863,0.00016
3970.54192,0.00019
3969.11521,0.00024
3967.68849,0.00030
3966.26178,0.00036
3964.83507,0.00038
3963.40835,0.00034
3961.98164,0.00024
3960.55493,0.00013
3959.12822,0.00008
3957.70150,0.00009
3956.27479,0.00013
3954.84808,0.00014
3953.42136,0.00012
3951.99465,0.00008
3950.56794,0.00007
3949.14123,0.00011
3947.71451,0.00018
3946.28780,0.00021
3944.86109,0.00020
3943.43437,0.00015
3942.00766,0.00011
3940.58095,0.00010
3939.15424,0.00011
3937.72752,0.00011
3936.30081,0.00008
3934.87410,0.00003
3933.44738,0.00000
3932.02067,0.00002
3930.59396,0.00008
3929.16725,0.00017
3927.74053,0.00027
3926.31382,0.00037
3924.88711,0.00042
3923.46039,0.00040
3922.03368,0.00033
3920.60697,0.00026
3919.18026,0.00021
3917.75354,0.00019
3916.32683,0.00018
3914.90012,0.00017
3913.47340,0.00014
3912.04669,0.00009
3910.61998,0.00005
3909.19327,0.00003
3907.76655,0.00004
3906.33984,0.00007
3904.91313,0.00012
3903.48641,0.00018
3902.05970,0.00023
3900.63299,0.00025
3899.20628,0.00025
3897.77956,0.00025
3896.35285,0.00026
3894.92614,0.00026
3893.49942,0.00024
3892.07271,0.00022
3890.64600,0.00023
3889.21929,0.00027
3887.79257,0.00031
3886.36586,0.00031
3884.93915,0.00027
3883.51243,0.00023
3882.08572,0.00020
3880.65901,0.00017
3879.23230,0.00011
3877.80558,0.00005
3876.37887,0.00001
3874.95216,0.00002
3873.52544,0.00009
3872.09873,0.00015
3870.67202,0.00018
3869.24531,0.00019
3867.81859,0.00021
3866.39188,0.00024
3864.96517,0.00028
3863.53845,0.00034
3862.11174,0.00041
3860.68503,0.00047
3859.25831,0.00054
3857.83160,0.00062
3856.40489,0.00068
3854.97818,0.00062
3853.55146,0.00039
3852.12475,0.00012
3850.69804,0.00000
3849.27132,0.00006
3847.84461,0.00021
3846.41790,0.00034
3844.99119,0.00042
3843.56447,0.00045
3842.13776,0.00044
3840.71105,0.00039
3839.28433,0.00028
3837.85762,0.00014
3836.43091,0.00008
3835.00420,0.00012
3833.57748,0.00022
3832.15077,0.00029
3830.72406,0.00029
3829.29734,0.00027
3827.87063,0.00028
3826.44392,0.00031
3825.01721,0.00035
3823.59049,0.00039
3822.16378,0.00041
3820.73707,0.00040
3819.31035,0.00037
3817.88364,0.00030
3816.45693,0.00021
3815.03022,0.00014
3813.60350,0.00013
3812.17679,0.00018
3810.75008,0.00024
3809.32336,0.00025
3807.89665,0.00020
3806.46994,0.00015
3805.04323,0.00016
3803.61651,0.00019
3802.18980,0.00020
3800.76309,0.00015
3799.33637,0.00009
3797.90966,0.00006
3796.48295,0.00007
3795.05624,0.00009
3793.62952,0.00010
3792.20281,0.00012
3790.77610,0.00011
3789.34938,0.00008
3787.92267,0.00005
3786.49596,0.00005
3785.06925,0.00011
3783.64253,0.00019
3782.21582,0.00024
3780.78911,0.00021
3779.36239,0.00011
3777.93568,0.00002
3776.50897,0.00000
3775.08226,0.00008
3773.65554,0.00021
3772.22883,0.00029
3770.80212,0.00029
3769.37540,0.00022
3767.94869,0.00015
3766.52198,0.00012
3765.09527,0.00012
3763.66855,0.00014
3762.24184,0.00014
3760.81513,0.00014
3759.38841,0.00014
3757.96170,0.00018
3756.53499,0.00025
3755.10828,0.00030
3753.68156,0.00028
3752.25485,0.00018
3750.82814,0.00007
3749.40142,0.00002
3747.97471,0.00005
3746.54800,0.00010
3745.12129,0.00010
3743.69457,0.00003
3742.26786,0.00000
3740.84115,0.00010
3739.41443,0.00028
3737.98772,0.00045
3736.56101,0.00052
3735.13430,0.00048
3733.70758,0.00035
3732.28087,0.00018
3730.85416,0.00006
3729.42744,0.00000
3728.00073,0.00000
3726.57402,0.00001
3725.14731,0.00001
3723.72059,0.00003
3722.29388,0.00009
3720.86717,0.00017
3719.44045,0.00023
3718.01374,0.00026
3716.58703,0.00024
3715.16032,0.00020
3713.73360,0.00017
3712.30689,0.00015
3710.88018,0.00013
3709.45346,0.00012
3708.02675,0.00012
3706.60004,0.00011
3705.17332,0.00010
3703.74661,0.00007
3702.31990,0.00003
3700.89319,0.00000
3699.46647,0.00000
3698.03976,0.00002
3696.61305,0.00006
3695.18633,0.00010
3693.75962,0.00013
3692.33291,0.00016
3690.90620,0.00021
3689.47948,0.00024
3688.05277,0.00022
3686.62606,0.00018
3685.19934,0.00016
3683.77263,0.00017
3682.34592,0.00020
3680.91921,0.00022
3679.49249,0.00025
3678.06578,0.00029
3676.63907,0.00033
3675.21235,0.00037
3673.78564,0.00041
3672.35893,0.00043
3670.93222,0.00040
3669.50550,0.00035
3668.07879,0.00035
3666.65208,0.00041
3665.22536,0.00048
3663.79865,0.00053
3662.37194,0.00058
3660.94523,0.00065
3659.51851,0.00075
3658.09180,0.00081
3656.66509,0.00080
3655.23837,0.00074
3653.81166,0.00069
3652.38495,0.00069
3650.95824,0.00073
3649.53152,0.00081
3648.10481,0.00093
3646.67810,0.00107
3645.25138,0.00121
3643.82467,0.00130
3642.39796,0.00133
3640.97125,0.00132
3639.54453,0.00134
3638.11782,0.00140
3636.69111,0.00146
3635.26439,0.00148
3633.83768,0.00149
3632.41097,0.00153
3630.98426,0.00159
3629.55754,0.00164
3628.13083,0.00168
3626.70412,0.00173
3625.27740,0.00184
3623.85069,0.00196
3622.42398,0.00206
3620.99727,0.00211
3619.57055,0.00216
3618.14384,0.00223
3616.71713,0.00232
3615.29041,0.00239
3613.86370,0.00244
3612.43699,0.00249
3611.01028,0.00255
3609.58356,0.00260
3608.15685,0.00260
3606.73014,0.00256
3605.30342,0.00251
3603.87671,0.00246
3602.45000,0.00245
3601.02329,0.00252
3599.59657,0.00265
3598.16986,0.00281
3596.74315,0.00291
3595.31643,0.00295
3593.88972,0.00299
3592.46301,0.00307
3591.03630,0.00319
3589.60958,0.00330
3588.18287,0.00336
3586.75616,0.00339
3585.32944,0.00345
3583.90273,0.00357
3582.47602,0.00371
3581.04931,0.00382
3579.62259,0.00390
3578.19588,0.00395
3576.76917,0.00399
3575.34245,0.00405
3573.91574,0.00413
3572.48903,0.00425
3571.06232,0.00440
3569.63560,0.00458
3568.20889,0.00474
3566.78218,0.00486
3565.35546,0.00492
3563.92875,0.00496
3562.50204,0.00500
3561.07533,0.00504
3559.64861,0.00507
3558.22190,0.00508
3556.79519,0.00510
3555.36847,0.00513
3553.94176,0.00519
3552.51505,0.00533
3551.08833,0.00556
3549.66162,0.00583
3548.23491,0.00606
3546.80820,0.00622
3545.38148,0.00632
3543.95477,0.00641
3542.52806,0.00650
3541.10134,0.00656
3539.67463,0.00660
3538.24792,0.00664
3536.82121,0.00673
3535.39449,0.00687
3533.96778,0.00700
3532.54107,0.00704
3531.11435,0.00699
3529.68764,0.00692
3528.26093,0.00696
3526.83422,0.00711
3525.40750,0.00729
3523.98079,0.00742
3522.55408,0.00751
3521.12736,0.00760
3519.70065,0.00769
3518.27394,0.00777
3516.84723,0.00781
3515.42051,0.00782
3513.99380,0.00780
3512.56709,0.00773
3511.14037,0.00767
3509.71366,0.00764
3508.28695,0.00765
3506.86024,0.00764
3505.43352,0.00759
3504.00681,0.00752
3502.58010,0.00748
3501.15338,0.00751
3499.72667,0.00758
3498.29996,0.00767
3496.87325,0.00775
3495.44653,0.00779
3494.01982,0.00782
3492.59311,0.00784
3491.16639,0.00787
3489.73968,0.00789
3488.31297,0.00787
3486.88626,0.00779
3485.45954,0.00767
3484.03283,0.00759
3482.60612,0.00762
3481.17940,0.00773
3479.75269,0.00782
3478.32598,0.00779
3476.89927,0.00767
3475.47255,0.00750
3474.04584,0.00740
3472.61913,0.00742
3471.19241,0.00757
3469.76570,0.00778
3468.33899,0.00791
3466.91228,0.00789
3465.48556,0.00778
3464.05885,0.00768
3462.63214,0.00765
3461.20542,0.00765
3459.77871,0.00763
3458.35200,0.00758
3456.92529,0.00754
3455.49857,0.00752
3454.07186,0.00751
3452.64515,0.00745
3451.21843,0.00737
3449.79172,0.00731
3448.36501,0.00731
3446.93830,0.00733
3445.51158,0.00734
3444.08487,0.00736
3442.65816,0.00746
3441.23144,0.00762
3439.80473,0.00780
3438.37802,0.00798
3436.95131,0.00815
3435.52459,0.00832
3434.09788,0.00845
3432.67117,0.00846
3431.24445,0.00839
3429.81774,0.00830
3428.39103,0.00822
3426.96432,0.00813
3425.53760,0.00804
3424.11089,0.00797
3422.68418,0.00797
3421.25746,0.00803
3419.83075,0.00811
3418.40404,0.00817
3416.97733,0.00823
3415.55061,0.00833
3414.12390,0.00851
3412.69719,0.00873
3411.27047,0.00892
3409.84376,0.00905
3408.41705,0.00912
3406.99033,0.00917
3405.56362,0.00922
3404.13691,0.00934
3402.71020,0.00952
3401.28348,0.00970
3399.85677,0.00984
3398.43006,0.00987
3397.00334,0.00984
3395.57663,0.00986
3394.14992,0.00996
3392.72321,0.01009
3391.29649,0.01014
3389.86978,0.01010
3388.44307,0.01005
3387.01635,0.01007
3385.58964,0.01016
3384.16293,0.01024
3382.73622,0.01026
3381.30950,0.01022
3379.88279,0.01018
3378.45608,0.01014
3377.02936,0.01010
3375.60265,0.01001
3374.17594,0.00991
3372.74923,0.00990
3371.32251,0.01002
3369.89580,0.01016
3368.46909,0.01016
3367.04237,0.00997
3365.61566,0.00968
3364.18895,0.00941
3362.76224,0.00923
3361.33552,0.00910
3359.90881,0.00899
3358.48210,0.00888
3357.05538,0.00880
3355.62867,0.00877
3354.20196,0.00880
3352.77525,0.00884
3351.34853,0.00885
3349.92182,0.00877
3348.49511,0.00863
3347.06839,0.00848
3345.64168,0.00834
3344.21497,0.00819
3342.78826,0.00802
3341.36154,0.00783
3339.93483,0.00767
3338.50812,0.00754
3337.08140,0.00740
3335.65469,0.00725
3334.22798,0.00711
3332.80127,0.00697
3331.37455,0.00681
3329.94784,0.00659
3328.52113,0.00634
3327.09441,0.00614
3325.66770,0.00602
3324.24099,0.00595
3322.81428,0.00589
3321.38756,0.00581
3319.96085,0.00573
3318.53414,0.00566
3317.10742,0.00559
3315.68071,0.00547
3314.25400,0.00535
3312.82729,0.00529
3311.40057,0.00532
3309.97386,0.00537
3308.54715,0.00537
3307.12043,0.00530
3305.69372,0.00516
3304.26701,0.00495
3302.84030,0.00468
3301.41358,0.00440
3299.98687,0.00420
3298.56016,0.00413
3297.13344,0.00413
3295.70673,0.00412
3294.28002,0.00403
3292.85331,0.00389
3291.42659,0.00374
3289.99988,0.00362
3288.57317,0.00353
3287.14645,0.00342
3285.71974,0.00331
3284.29303,0.00319
3282.86632,0.00310
3281.43960,0.00306
3280.01289,0.00305
3278.58618,0.00305
3277.15946,0.00302
3275.73275,0.00298
3274.30604,0.00292
3272.87933,0.00284
3271.45261,0.00275
3270.02590,0.00267
3268.59919,0.00260
3267.17247,0.00252
3265.74576,0.00239
3264.31905,0.00223
3262.89234,0.00207
3261.46562,0.00197
3260.03891,0.00194
3258.61220,0.00195
3257.18548,0.00199
3255.75877,0.00201
3254.33206,0.00198
3252.90534,0.00191
3251.47863,0.00185
3250.05192,0.00179
3248.62521,0.00171
3247.19849,0.00162
3245.77178,0.00154
3244.34507,0.00149
3242.91835,0.00144
3241.49164,0.00140
3240.06493,0.00136
3238.63822,0.00131
3237.21150,0.00125
3235.78479,0.00120
3234.35808,0.00119
3232.93136,0.00119
3231.50465,0.00115
3230.07794,0.00109
3228.65123,0.00105
3227.22451,0.00101
3225.79780,0.00094
3224.37109,0.00082
3222.94437,0.00074
3221.51766,0.00070
3220.09095,0.00069
3218.66424,0.00069
3217.23752,0.00072
3215.81081,0.00074
3214.38410,0.00073
3212.95738,0.00067
3211.53067,0.00062
3210.10396,0.00060
3208.67725,0.00059
3207.25053,0.00057
3205.82382,0.00056
3204.39711,0.00056
3202.97039,0.00055
3201.54368,0.00053
3200.11697,0.00047
3198.69026,0.00042
3197.26354,0.00037
3195.83683,0.00034
3194.41012,0.00031
3192.98340,0.00029
3191.55669,0.00028
3190.12998,0.00032
3188.70327,0.00039
3187.27655,0.00047
3185.84984,0.00050
3184.42313,0.00048
3182.99641,0.00042
3181.56970,0.00039
3180.14299,0.00042
3178.71628,0.00048
3177.28956,0.00053
3175.86285,0.00050
3174.43614,0.00041
3173.00942,0.00030
3171.58271,0.00023
3170.15600,0.00019
3168.72929,0.00018
3167.30257,0.00019
3165.87586,0.00022
3164.44915,0.00026
3163.02243,0.00028
3161.59572,0.00026
3160.16901,0.00023
3158.74230,0.00018
3157.31558,0.00014
3155.88887,0.00010
3154.46216,0.00011
3153.03544,0.00015
3151.60873,0.00016
3150.18202,0.00010
3148.75531,0.00001
3147.32859,0.00000
3145.90188,0.00008
3144.47517,0.00021
3143.04845,0.00030
3141.62174,0.00033
3140.19503,0.00032
3138.76832,0.00030
3137.34160,0.00027
3135.91489,0.00022
3134.48818,0.00017
3133.06146,0.00017
3131.63475,0.00020
3130.20804,0.00021
3128.78133,0.00017
3127.35461,0.00009
3125.92790,0.00002
3124.50119,0.00000
3123.07447,0.00005
3121.64776,0.00015
3120.22105,0.00026
3118.79434,0.00035
3117.36762,0.00037
3115.94091,0.00031
3114.51420,0.00019
3113.08748,0.00012
3111.66077,0.00015
3110.23406,0.00025
3108.80735,0.00034
3107.38063,0.00036
3105.95392,0.00035
3104.52721,0.00039
3103.10049,0.00047
3101.67378,0.00051
3100.24707,0.00050
3098.82035,0.00044
3097.39364,0.00041
3095.96693,0.00041
3094.54022,0.00046
3093.11350,0.00057
3091.68679,0.00072
3090.26008,0.00085
3088.83336,0.00096
3087.40665,0.00105
3085.97994,0.00111
3084.55323,0.00113
3083.12651,0.00111
3081.69980,0.00108
3080.27309,0.00110
3078.84637,0.00113
3077.41966,0.00112
3075.99295,0.00106
3074.56624,0.00098
3073.13952,0.00096
3071.71281,0.00101
3070.28610,0.00113
3068.85938,0.00127
3067.43267,0.00142
3066.00596,0.00153
3064.57925,0.00159
3063.15253,0.00161
3061.72582,0.00161
3060.29911,0.00160
3058.87239,0.00158
3057.44568,0.00158
3056.01897,0.00159
3054.59226,0.00160
3053.16554,0.00158
3051.73883,0.00152
3050.31212,0.00142
3048.88540,0.00132
3047.45869,0.00128
3046.03198,0.00132
3044.60527,0.00143
3043.17855,0.00158
3041.75184,0.00173
3040.32513,0.00181
3038.89841,0.00184
3037.47170,0.00189
3036.04499,0.00205
3034.61828,0.00234
3033.19156,0.00269
3031.76485,0.00299
3030.33814,0.00321
3028.91142,0.00337
3027.48471,0.00350
3026.05800,0.00361
3024.63129,0.00367
3023.20457,0.00367
3021.77786,0.00365
3020.35115,0.00365
3018.92443,0.00369
3017.49772,0.00378
3016.07101,0.00393
3014.64430,0.00416
3013.21758,0.00446
3011.79087,0.00480
3010.36416,0.00515
3008.93744,0.00550
3007.51073,0.00588
3006.08402,0.00633
3004.65731,0.00681
3003.23059,0.00729
3001.80388,0.00775
3000.37717,0.00821
2998.95045,0.00870
2997.52374,0.00923
2996.09703,0.00978
2994.67032,0.01032
2993.24360,0.01084
2991.81689,0.01139
2990.39018,0.01200
2988.96346,0.01270
2987.53675,0.01346
2986.11004,0.01421
2984.68333,0.01491
2983.25661,0.01561
2981.82990,0.01635
2980.40319,0.01709
2978.97647,0.01781
2977.54976,0.01853
2976.12305,0.01929
2974.69634,0.02011
2973.26962,0.02094
2971.84291,0.02183
2970.41620,0.02283
2968.98948,0.02396
2967.56277,0.02515
2966.13606,0.02629
2964.70935,0.02736
2963.28263,0.02837
2961.85592,0.02930
2960.42921,0.03014
2959.00249,0.03089
2957.57578,0.03156
2956.14907,0.03216
2954.72236,0.03271
2953.29564,0.03327
2951.86893,0.03386
2950.44222,0.03447
2949.01550,0.03510
2947.58879,0.03572
2946.16208,0.03632
2944.73536,0.03684
2943.30865,0.03727
2941.88194,0.03760
2940.45523,0.03782
2939.02851,0.03788
2937.60180,0.03776
2936.17509,0.03749
2934.74837,0.03714
2933.32166,0.03675
2931.89495,0.03628
2930.46824,0.03570
2929.04152,0.03496
2927.61481,0.03410
2926.18810,0.03320
2924.76138,0.03231
2923.33467,0.03142
2921.90796,0.03054
2920.48125,0.02970
2919.05453,0.02890
2917.62782,0.02808
2916.20111,0.02721
2914.77439,0.02629
2913.34768,0.02535
2911.92097,0.02442
2910.49426,0.02352
2909.06754,0.02270
2907.64083,0.02193
2906.21412,0.02120
2904.78740,0.02051
2903.36069,0.01985
2901.93398,0.01922
2900.50727,0.01862
2899.08055,0.01810
2897.65384,0.01769
2896.22713,0.01735
2894.80041,0.01703
2893.37370,0.01671
2891.94699,0.01643
2890.52028,0.01620
2889.09356,0.01601
2887.66685,0.01584
2886.24014,0.01567
2884.81342,0.01555
2883.38671,0.01553
2881.96000,0.01563
2880.53329,0.01583
2879.10657,0.01606
2877.67986,0.01628
2876.25315,0.01647
2874.82643,0.01661
2873.39972,0.01672
2871.97301,0.01679
2870.54630,0.01684
2869.11958,0.01688
2867.69287,0.01691
2866.26616,0.01698
2864.83944,0.01710
2863.41273,0.01725
2861.98602,0.01735
2860.55931,0.01732
2859.13259,0.01713
2857.70588,0.01677
2856.27917,0.01627
2854.85245,0.01572
2853.42574,0.01522
2851.99903,0.01482
2850.57232,0.01456
2849.14560,0.01445
2847.71889,0.01447
2846.29218,0.01455
2844.86546,0.01465
2843.43875,0.01470
2842.01204,0.01461
2840.58533,0.01428
2839.15861,0.01364
2837.73190,0.01269
2836.30519,0.01149
2834.87847,0.01015
2833.45176,0.00883
2832.02505,0.00763
2830.59834,0.00661
2829.17162,0.00576
2827.74491,0.00506
2826.31820,0.00447
2824.89148,0.00399
2823.46477,0.00361
2822.03806,0.00334
2820.61135,0.00315
2819.18463,0.00298
2817.75792,0.00284
2816.33121,0.00271
2814.90449,0.00259
2813.47778,0.00245
2812.05107,0.00232
2810.62436,0.00223
2809.19764,0.00217
2807.77093,0.00210
2806.34422,0.00200
2804.91750,0.00188
2803.49079,0.00176
2802.06408,0.00169
2800.63736,0.00164
2799.21065,0.00158
2797.78394,0.00150
2796.35723,0.00142
2794.93051,0.00134
2793.50380,0.00126
2792.07709,0.00120
2790.65037,0.00115
2789.22366,0.00113
2787.79695,0.00114
2786.37024,0.00117
2784.94352,0.00118
2783.51681,0.00115
2782.09010,0.00110
2780.66338,0.00104
2779.23667,0.00098
2777.80996,0.00094
2776.38325,0.00091
2774.95653,0.00090
2773.52982,0.00087
2772.10311,0.00083
2770.67639,0.00079
2769.24968,0.00078
2767.82297,0.00079
2766.39626,0.00080
2764.96954,0.00082
2763.54283,0.00086
2762.11612,0.00088
2760.68940,0.00085
2759.26269,0.00076
2757.83598,0.00067
2756.40927,0.00062
2754.98255,0.00060
2753.55584,0.00058
2752.12913,0.00058
2750.70241,0.00059
2749.27570,0.00062
2747.84899,0.00064
2746.42228,0.00066
2744.99556,0.00067
2743.56885,0.00068
2742.14214,0.00068
2740.71542,0.00067
2739.28871,0.00064
2737.86200,0.00061
2736.43529,0.00058
2735.00857,0.00055
2733.58186,0.00053
2732.15515,0.00053
2730.72843,0.00053
2729.30172,0.00051
2727.87501,0.00049
2726.44830,0.00047
2725.02158,0.00045
2723.59487,0.00044
2722.16816,0.00044
2720.74144,0.00046
2719.31473,0.00048
2717.88802,0.00048
2716.46131,0.00047
2715.03459,0.00046
2713.60788,0.00044
2712.18117,0.00037
2710.75445,0.00029
2709.32774,0.00027
2707.90103,0.00032
2706.47432,0.00039
2705.04760,0.00043
2703.62089,0.00043
2702.19418,0.00043
2700.76746,0.00042
2699.34075,0.00040
2697.91404,0.00037
2696.48733,0.00034
2695.06061,0.00033
2693.63390,0.00032
2692.20719,0.00032
2690.78047,0.00033
2689.35376,0.00034
2687.92705,0.00034
2686.50034,0.00032
2685.07362,0.00031
2683.64691,0.00034
2682.22020,0.00037
2680.79348,0.00037
2679.36677,0.00032
2677.94006,0.00025
2676.51335,0.00021
2675.08663,0.00023
2673.65992,0.00028
2672.23321,0.00034
2670.80649,0.00036
2669.37978,0.00031
2667.95307,0.00023
2666.52636,0.00017
2665.09964,0.00014
2663.67293,0.00013
2662.24622,0.00012
2660.81950,0.00014
2659.39279,0.00018
2657.96608,0.00021
2656.53937,0.00022
2655.11265,0.00023
2653.68594,0.00024
2652.25923,0.00026
2650.83251,0.00026
2649.40580,0.00026
2647.97909,0.00026
2646.55237,0.00026
2645.12566,0.00026
2643.69895,0.00026
2642.27224,0.00026
2640.84552,0.00027
2639.41881,0.00030
2637.99210,0.00034
2636.56538,0.00037
2635.13867,0.00037
2633.71196,0.00036
2632.28525,0.00035
2630.85853,0.00035
2629.43182,0.00034
2628.00511,0.00033
2626.57839,0.00030
2625.15168,0.00023
2623.72497,0.00017
2622.29826,0.00014
2620.87154,0.00016
2619.44483,0.00017
2618.01812,0.00019
2616.59140,0.00021
2615.16469,0.00023
2613.73798,0.00024
2612.31127,0.00024
2610.88455,0.00025
2609.45784,0.00026
2608.03113,0.00027
2606.60441,0.00027
2605.17770,0.00026
2603.75099,0.00027
2602.32428,0.00027
2600.89756,0.00024
2599.47085,0.00018
2598.04414,0.00015
2596.61742,0.00015
2595.19071,0.00016
2593.76400,0.00016
2592.33729,0.00016
2590.91057,0.00018
2589.48386,0.00019
2588.05715,0.00019
2586.63043,0.00017
2585.20372,0.00016
2583.77701,0.00016
2582.35030,0.00016
2580.92358,0.00015
2579.49687,0.00013
2578.07016,0.00012
2576.64344,0.00013
2575.21673,0.00012
2573.79002,0.00011
2572.36331,0.00008
2570.93659,0.00006
2569.50988,0.00004
2568.08317,0.00001
2566.65645,0.00002
2565.22974,0.00005
2563.80303,0.00008
2562.37632,0.00007
2560.94960,0.00004
2559.52289,0.00001
2558.09618,0.00000
2556.66946,0.00003
2555.24275,0.00007
2553.81604,0.00011
2552.38933,0.00012
2550.96261,0.00010
2549.53590,0.00008
2548.10919,0.00008
2546.68247,0.00011
2545.25576,0.00012
2543.82905,0.00011
2542.40234,0.00011
2540.97562,0.00012
2539.54891,0.00014
2538.12220,0.00014
2536.69548,0.00013
2535.26877,0.00011
2533.84206,0.00013
2532.41535,0.00018
2530.98863,0.00021
2529.56192,0.00018
2528.13521,0.00010
2526.70849,0.00002
2525.28178,0.00000
2523.85507,0.00003
2522.42836,0.00007
2521.00164,0.00007
2519.57493,0.00007
2518.14822,0.00009
2516.72150,0.00012
2515.29479,0.00012
2513.86808,0.00008
2512.44137,0.00004
2511.01465,0.00003
2509.58794,0.00005
2508.16123,0.00009
2506.73451,0.00014
2505.30780,0.00016
2503.88109,0.00016
2502.45438,0.00016
2501.02766,0.00016
2499.60095,0.00014
2498.17424,0.00010
2496.74752,0.00004
2495.32081,0.00000
2493.89410,0.00001
2492.46738,0.00008
2491.04067,0.00018
2489.61396,0.00024
2488.18725,0.00024
2486.76053,0.00018
2485.33382,0.00013
2483.90711,0.00011
2482.48039,0.00013
2481.05368,0.00015
2479.62697,0.00014
2478.20026,0.00012
2476.77354,0.00010
2475.34683,0.00007
2473.92012,0.00005
2472.49340,0.00003
2471.06669,0.00003
2469.63998,0.00005
2468.21327,0.00007
2466.78655,0.00009
2465.35984,0.00010
2463.93313,0.00008
2462.50641,0.00004
2461.07970,0.00001
2459.65299,0.00003
2458.22628,0.00007
2456.79956,0.00010
2455.37285,0.00010
2453.94614,0.00009
2452.51942,0.00006
2451.09271,0.00002
2449.66600,0.00000
2448.23929,0.00001
2446.81257,0.00005
2445.38586,0.00008
2443.95915,0.00007
2442.53243,0.00004
2441.10572,0.00004
2439.67901,0.00007
2438.25230,0.00010
2436.82558,0.00010
2435.39887,0.00008
2433.97216,0.00007
2432.54544,0.00008
2431.11873,0.00007
2429.69202,0.00005
2428.26531,0.00003
2426.83859,0.00004
2425.41188,0.00008
2423.98517,0.00014
2422.55845,0.00019
2421.13174,0.00020
2419.70503,0.00016
2418.27832,0.00013
2416.85160,0.00011
2415.42489,0.00009
2413.99818,0.00007
2412.57146,0.00005
2411.14475,0.00005
2409.71804,0.00006
2408.29133,0.00004
2406.86461,0.00001
2405.43790,0.00001
2404.01119,0.00003
2402.58447,0.00008
2401.15776,0.00014
2399.73105,0.00019
2398.30434,0.00019
2396.87762,0.00016
2395.45091,0.00012
2394.02420,0.00010
2392.59748,0.00011
2391.17077,0.00012
2389.74406,0.00011
2388.31735,0.00009
2386.89063,0.00009
2385.46392,0.00011
2384.03721,0.00016
2382.61049,0.00019
2381.18378,0.00021
2379.75707,0.00020
2378.33036,0.00015
2376.90364,0.00010
2375.47693,0.00009
2374.05022,0.00015
2372.62350,0.00027
2371.19679,0.00035
2369.77008,0.00036
2368.34337,0.00031
2366.91665,0.00022
2365.48994,0.00017
2364.06323,0.00016
2362.63651,0.00014
2361.20980,0.00007
2359.78309,0.00000
2358.35638,0.00003
2356.92966,0.00017
2355.50295,0.00033
2354.07624,0.00037
2352.64952,0.00031
2351.22281,0.00023
2349.79610,0.00018
2348.36939,0.00021
2346.94267,0.00030
2345.51596,0.00042
2344.08925,0.00054
2342.66253,0.00063
2341.23582,0.00065
2339.80911,0.00059
2338.38239,0.00045
2336.95568,0.00031
2335.52897,0.00026
2334.10226,0.00030
2332.67554,0.00036
2331.24883,0.00038
2329.82212,0.00035
2328.39540,0.00032
2326.96869,0.00032
2325.54198,0.00036
2324.11527,0.00039
2322.68855,0.00038
2321.26184,0.00033
2319.83513,0.00028
2318.40841,0.00027
2316.98170,0.00032
2315.55499,0.00040
2314.12828,0.00048
2312.70156,0.00055
2311.27485,0.00060
2309.84814,0.00063
2308.42142,0.00065
2306.99471,0.00067
2305.56800,0.00069
2304.14129,0.00070
2302.71457,0.00073
2301.28786,0.00077
2299.86115,0.00081
2298.43443,0.00087
2297.00772,0.00095
2295.58101,0.00106
2294.15430,0.00117
2292.72758,0.00127
2291.30087,0.00135
2289.87416,0.00140
2288.44744,0.00144
2287.02073,0.00148
2285.59402,0.00152
2284.16731,0.00157
2282.74059,0.00163
2281.31388,0.00170
2279.88717,0.00177
2278.46045,0.00183
2277.03374,0.00187
2275.60703,0.00189
2274.18032,0.00190
2272.75360,0.00189
2271.32689,0.00187
2269.90018,0.00186
2268.47346,0.00185
2267.04675,0.00185
2265.62004,0.00184
2264.19333,0.00178
2262.76661,0.00170
2261.33990,0.00161
2259.91319,0.00154
2258.48647,0.00148
2257.05976,0.00144
2255.63305,0.00140
2254.20634,0.00134
2252.77962,0.00126
2251.35291,0.00116
2249.92620,0.00105
2248.49948,0.00094
2247.07277,0.00085
2245.64606,0.00079
2244.21935,0.00075
2242.79263,0.00075
2241.36592,0.00078
2239.93921,0.00081
2238.51249,0.00083
2237.08578,0.00085
2235.65907,0.00086
2234.23236,0.00085
2232.80564,0.00082
2231.37893,0.00077
2229.95222,0.00068
2228.52550,0.00058
2227.09879,0.00049
2225.67208,0.00042
2224.24537,0.00036
2222.81865,0.00033
2221.39194,0.00030
2219.96523,0.00028
2218.53851,0.00026
2217.11180,0.00025
2215.68509,0.00021
2214.25838,0.00019
2212.83166,0.00019
2211.40495,0.00021
2209.97824,0.00023
2208.55152,0.00023
2207.12481,0.00021
2205.69810,0.00020
2204.27139,0.00018
2202.84467,0.00015
2201.41796,0.00012
2199.99125,0.00009
2198.56453,0.00004
2197.13782,0.00000
2195.71111,0.00000
2194.28439,0.00006
2192.85768,0.00013
2191.43097,0.00016
2190.00426,0.00015
2188.57754,0.00013
2187.15083,0.00010
2185.72412,0.00008
2184.29740,0.00009
2182.87069,0.00011
2181.44398,0.00014
2180.01727,0.00015
2178.59055,0.00017
2177.16384,0.00019
2175.73713,0.00018
2174.31041,0.00013
2172.88370,0.00007
2171.45699,0.00004
2170.03028,0.00005
2168.60356,0.00007
2167.17685,0.00008
2165.75014,0.00008
2164.32342,0.00009
2162.89671,0.00010
2161.47000,0.00011
2160.04329,0.00010
2158.61657,0.00009
2157.18986,0.00008
2155.76315,0.00010
2154.33643,0.00012
2152.90972,0.00015
2151.48301,0.00017
2150.05630,0.00017
2148.62958,0.00016
2147.20287,0.00016
2145.77616,0.00015
2144.34944,0.00012
2142.92273,0.00007
2141.49602,0.00002
2140.06931,0.00001
2138.64259,0.00002
2137.21588,0.00003
2135.78917,0.00002
2134.36245,0.00001
2132.93574,0.00000
2131.50903,0.00001
2130.08232,0.00002
2128.65560,0.00002
2127.22889,0.00001
2125.80218,0.00000
2124.37546,0.00001
2122.94875,0.00004
2121.52204,0.00005
2120.09533,0.00006
2118.66861,0.00005
2117.24190,0.00005
2115.81519,0.00007
2114.38847,0.00012
2112.96176,0.00016
2111.53505,0.00017
2110.10834,0.00016
2108.68162,0.00014
2107.25491,0.00016
2105.82820,0.00018
2104.40148,0.00019
2102.97477,0.00017
2101.54806,0.00015
2100.12135,0.00015
2098.69463,0.00016
2097.26792,0.00017
2095.84121,0.00017
2094.41449,0.00015
2092.98778,0.00014
2091.56107,0.00013
2090.13436,0.00013
2088.70764,0.00012
2087.28093,0.00010
2085.85422,0.00010
2084.42750,0.00010
2083.00079,0.00011
2081.57408,0.00011
2080.14737,0.00011
2078.72065,0.00011
2077.29394,0.00011
2075.86723,0.00011
2074.44051,0.00009
2073.01380,0.00006
2071.58709,0.00003
2070.16038,0.00003
2068.73366,0.00004
2067.30695,0.00007
2065.88024,0.00010
2064.45352,0.00013
2063.02681,0.00015
2061.60010,0.00014
2060.17339,0.00012
2058.74667,0.00012
2057.31996,0.00015
2055.89325,0.00019
2054.46653,0.00023
2053.03982,0.00024
2051.61311,0.00022
2050.18640,0.00020
2048.75968,0.00019
2047.33297,0.00023
2045.90626,0.00028
2044.47954,0.00030
2043.05283,0.00028
2041.62612,0.00025
2040.19940,0.00024
2038.77269,0.00025
2037.34598,0.00027
2035.91927,0.00027
2034.49255,0.00025
2033.06584,0.00023
2031.63913,0.00023
2030.21241,0.00023
2028.78570,0.00022
2027.35899,0.00021
2025.93228,0.00021
2024.50556,0.00021
2023.07885,0.00019
2021.65214,0.00015
2020.22542,0.00013
2018.79871,0.00011
2017.37200,0.00013
2015.94529,0.00016
2014.51857,0.00018
2013.09186,0.00018
2011.66515,0.00016
2010.23843,0.00014
2008.81172,0.00012
2007.38501,0.00010
2005.95830,0.00010
2004.53158,0.00012
2003.10487,0.00016
2001.67816,0.00018
2000.25144,0.00019
1998.82473,0.00020
1997.39802,0.00020
1995.97131,0.00020
1994.54459,0.00019
1993.11788,0.00018
1991.69117,0.00017
1990.26445,0.00017
1988.83774,0.00019
1987.41103,0.00022
1985.98432,0.00026
1984.55760,0.00027
1983.13089,0.00028
1981.70418,0.00030
1980.27746,0.00033
1978.85075,0.00038
1977.42404,0.00042
1975.99733,0.00045
1974.57061,0.00046
1973.14390,0.00043
1971.71719,0.00037
1970.29047,0.00031
1968.86376,0.00026
1967.43705,0.00025
1966.01034,0.00026
1964.58362,0.00028
1963.15691,0.00029
1961.73020,0.00030
1960.30348,0.00031
1958.87677,0.00032
1957.45006,0.00034
1956.02335,0.00035
1954.59663,0.00037
1953.16992,0.00037
1951.74321,0.00036
1950.31649,0.00037
1948.88978,0.00039
1947.46307,0.00040
1946.03636,0.00037
1944.60964,0.00031
1943.18293,0.00025
1941.75622,0.00021
1940.32950,0.00020
1938.90279,0.00021
1937.47608,0.00022
1936.04937,0.00025
1934.62265,0.00025
1933.19594,0.00022
1931.76923,0.00018
1930.34251,0.00015
1928.91580,0.00013
1927.48909,0.00010
1926.06238,0.00008
1924.63566,0.00006
1923.20895,0.00007
1921.78224,0.00012
1920.35552,0.00019
1918.92881,0.00024
1917.50210,0.00024
1916.07539,0.00021
1914.64867,0.00019
1913.22196,0.00021
1911.79525,0.00025
1910.36853,0.00029
1908.94182,0.00030
1907.51511,0.00030
1906.08840,0.00028
1904.66168,0.00025
1903.23497,0.00024
1901.80826,0.00024
1900.38154,0.00025
1898.95483,0.00027
1897.52812,0.00028
1896.10141,0.00026
1894.67469,0.00023
1893.24798,0.00019
1891.82127,0.00018
1890.39455,0.00018
1888.96784,0.00020
1887.54113,0.00022
1886.11441,0.00026
1884.68770,0.00030
1883.26099,0.00032
1881.83428,0.00031
1880.40756,0.00029
1878.98085,0.00028
1877.55414,0.00028
1876.12742,0.00027
1874.70071,0.00024
1873.27400,0.00021
1871.84729,0.00019
1870.42057,0.00016
1868.99386,0.00012
1867.56715,0.00009
1866.14043,0.00009
1864.71372,0.00010
1863.28701,0.00008
1861.86030,0.00005
1860.43358,0.00002
1859.00687,0.00002
1857.58016,0.00004
1856.15344,0.00006
1854.72673,0.00008
1853.30002,0.00008
1851.87331,0.00009
1850.44659,0.00008
1849.01988,0.00006
1847.59317,0.00004
1846.16645,0.00001
1844.73974,0.00000
1843.31303,0.00000
1841.88632,0.00001
1840.45960,0.00002
1839.03289,0.00001
1837.60618,0.00000
1836.17946,0.00001
1834.75275,0.00003
1833.32604,0.00006
1831.89933,0.00010
1830.47261,0.00011
1829.04590,0.00009
1827.61919,0.00005
1826.19247,0.00000
1824.76576,0.00000
1823.33905,0.00003
1821.91234,0.00009
1820.48562,0.00014
1819.05891,0.00019
1817.63220,0.00023
1816.20548,0.00024
1814.77877,0.00024
1813.35206,0.00024
1811.92535,0.00025
1810.49863,0.00026
1809.07192,0.00028
1807.64521,0.00030
1806.21849,0.00033
1804.79178,0.00035
1803.36507,0.00039
1801.93836,0.00044
1800.51164,0.00049
1799.08493,0.00054
1797.65822,0.00058
1796.23150,0.00063
1794.80479,0.00068
1793.37808,0.00075
1791.95137,0.00085
1790.52465,0.00097
1789.09794,0.00106
1787.67123,0.00111
1786.24451,0.00112
1784.81780,0.00113
1783.39109,0.00115
1781.96438,0.00122
1780.53766,0.00131
1779.11095,0.00141
1777.68424,0.00150
1776.25752,0.00160
1774.83081,0.00172
1773.40410,0.00184
1771.97739,0.00198
1770.55067,0.00214
1769.12396,0.00235
1767.69725,0.00263
1766.27053,0.00295
1764.84382,0.00332
1763.41711,0.00374
1761.99040,0.00423
1760.56368,0.00479
1759.13697,0.00540
1757.71026,0.00609
1756.28354,0.00688
1754.85683,0.00779
1753.43012,0.00891
1752.00341,0.01040
1750.57669,0.01248
1749.14998,0.01528
1747.72327,0.01878
1746.29655,0.02300
1744.86984,0.02804
1743.44313,0.03411
1742.01641,0.04137
1740.58970,0.04982
1739.16299,0.05895
1737.73628,0.06813
1736.30956,0.07748
1734.88285,0.08771
1733.45614,0.09868
1732.02942,0.10885
1730.60271,0.11708
1729.17600,0.12349
1727.74929,0.12849
1726.32257,0.13221
1724.89586,0.13459
1723.46915,0.13568
1722.04243,0.13563
1720.61572,0.13453
1719.18901,0.13240
1717.76230,0.12927
1716.33558,0.12551
1714.90887,0.12171
1713.48216,0.11823
1712.05544,0.11511
1710.62873,0.11230
1709.20202,0.10981
1707.77531,0.10773
1706.34859,0.10617
1704.92188,0.10524
1703.49517,0.10514
1702.06845,0.10608
1700.64174,0.10826
1699.21503,0.11156
1697.78832,0.11569
1696.36160,0.12044
1694.93489,0.12544
1693.50818,0.12993
1692.08146,0.13344
1690.65475,0.13590
1689.22804,0.13731
1687.80133,0.13743
1686.37461,0.13571
1684.94790,0.13156
1683.52119,0.12523
1682.09447,0.11798
1680.66776,0.11086
1679.24105,0.10394
1677.81434,0.09676
1676.38762,0.08901
1674.96091,0.08093
1673.53420,0.07322
1672.10748,0.06623
1670.68077,0.05958
1669.25406,0.05302
1667.82735,0.04700
1666.40063,0.04200
1664.97392,0.03783
1663.54721,0.03401
1662.12049,0.03041
1660.69378,0.02723
1659.26707,0.02471
1657.84036,0.02280
1656.41364,0.02124
1654.98693,0.01968
1653.56022,0.01790
1652.13350,0.01609
1650.70679,0.01466
1649.28008,0.01367
1647.85337,0.01282
1646.42665,0.01192
1644.99994,0.01102
1643.57323,0.01026
1642.14651,0.00964
1640.71980,0.00911
1639.29309,0.00859
1637.86638,0.00804
1636.43966,0.00747
1635.01295,0.00692
1633.58624,0.00646
1632.15952,0.00611
1630.73281,0.00579
1629.30610,0.00546
1627.87939,0.00509
1626.45267,0.00473
1625.02596,0.00435
1623.59925,0.00398
1622.17253,0.00362
1620.74582,0.00332
1619.31911,0.00305
1617.89240,0.00276
1616.46568,0.00246
1615.03897,0.00216
1613.61226,0.00192
1612.18554,0.00174
1610.75883,0.00165
1609.33212,0.00168
1607.90541,0.00187
1606.47869,0.00220
1605.05198,0.00259
1603.62527,0.00288
1602.19855,0.00295
1600.77184,0.00273
1599.34513,0.00229
1597.91842,0.00174
1596.49170,0.00121
1595.06499,0.00075
1593.63828,0.00041
1592.21156,0.00018
1590.78485,0.00004
1589.35814,0.00000
1587.93142,0.00006
1586.50471,0.00021
1585.07800,0.00036
1583.65129,0.00044
1582.22457,0.00042
1580.79786,0.00034
1579.37115,0.00027
1577.94443,0.00028
1576.51772,0.00039
1575.09101,0.00057
1573.66430,0.00079
1572.23758,0.00106
1570.81087,0.00141
1569.38416,0.00185
1567.95744,0.00236
1566.53073,0.00291
1565.10402,0.00349
1563.67731,0.00409
1562.25059,0.00471
1560.82388,0.00544
1559.39717,0.00641
1557.97045,0.00759
1556.54374,0.00880
1555.11703,0.00992
1553.69032,0.01100
1552.26360,0.01211
1550.83689,0.01325
1549.41018,0.01443
1547.98346,0.01558
1546.55675,0.01668
1545.13004,0.01775
1543.70333,0.01886
1542.27661,0.02011
1540.84990,0.02150
1539.42319,0.02288
1537.99647,0.02403
1536.56976,0.02486
1535.14305,0.02547
1533.71634,0.02598
1532.28962,0.02639
1530.86291,0.02666
1529.43620,0.02677
1528.00948,0.02673
1526.58277,0.02659
1525.15606,0.02635
1523.72935,0.02599
1522.30263,0.02549
1520.87592,0.02486
1519.44921,0.02411
1518.02249,0.02324
1516.59578,0.02225
1515.16907,0.02118
1513.74236,0.02010
1512.31564,0.01906
1510.88893,0.01802
1509.46222,0.01689
1508.03550,0.01554
1506.60879,0.01401
1505.18208,0.01266
1503.75537,0.01179
1502.32865,0.01144
1500.90194,0.01158
1499.47523,0.01223
1498.04851,0.01338
1496.62180,0.01476
1495.19509,0.01594
1493.76838,0.01661
1492.34166,0.01688
1490.91495,0.01718
1489.48824,0.01801
1488.06152,0.01963
1486.63481,0.02199
1485.20810,0.02492
1483.78139,0.02837
1482.35467,0.03242
1480.92796,0.03707
1479.50125,0.04221
1478.07453,0.04780
1476.64782,0.05395
1475.22111,0.06091
1473.79440,0.06878
1472.36768,0.07715
1470.94097,0.08500
1469.51426,0.09146
1468.08754,0.09642
1466.66083,0.10013
1465.23412,0.10265
1463.80741,0.10385
1462.38069,0.10377
1460.95398,0.10267
1459.52727,0.10073
1458.10055,0.09798
1456.67384,0.09458
1455.24713,0.09085
1453.82042,0.08696
1452.39370,0.08279
1450.96699,0.07821
1449.54028,0.07336
1448.11356,0.06851
1446.68685,0.06398
1445.26014,0.05993
1443.83343,0.05633
1442.40671,0.05306
1440.98000,0.05001
1439.55329,0.04703
1438.12657,0.04392
1436.69986,0.04062
1435.27315,0.03744
1433.84643,0.03481
1432.41972,0.03285
1430.99301,0.03141
1429.56630,0.03033
1428.13958,0.02938
1426.71287,0.02825
1425.28616,0.02666
1423.85944,0.02455
1422.43273,0.02212
1421.00602,0.01961
1419.57931,0.01725
1418.15259,0.01528
1416.72588,0.01395
1415.29917,0.01323
1413.87245,0.01293
1412.44574,0.01283
1411.01903,0.01286
1409.59232,0.01299
1408.16560,0.01324
1406.73889,0.01364
1405.31218,0.01416
1403.88546,0.01475
1402.45875,0.01537
1401.03204,0.01600
1399.60533,0.01665
1398.17861,0.01733
1396.75190,0.01804
1395.32519,0.01883
1393.89847,0.01974
1392.47176,0.02077
1391.04505,0.02188
1389.61834,0.02301
1388.19162,0.02409
1386.76491,0.02502
1385.33820,0.02571
1383.91148,0.02612
1382.48477,0.02624
1381.05806,0.02608
1379.63135,0.02560
1378.20463,0.02483
1376.77792,0.02381
1375.35121,0.02266
1373.92449,0.02150
1372.49778,0.02047
1371.07107,0.01956
1369.64436,0.01872
1368.21764,0.01790
1366.79093,0.01709
1365.36422,0.01632
1363.93750,0.01560
1362.51079,0.01492
1361.08408,0.01431
1359.65737,0.01384
1358.23065,0.01350
1356.80394,0.01331
1355.37723,0.01323
1353.95051,0.01322
1352.52380,0.01325
1351.09709,0.01336
1349.67038,0.01359
1348.24366,0.01396
1346.81695,0.01446
1345.39024,0.01506
1343.96352,0.01572
1342.53681,0.01643
1341.11010,0.01718
1339.68339,0.01792
1338.25667,0.01853
1336.82996,0.01889
1335.40325,0.01895
1333.97653,0.01874
1332.54982,0.01835
1331.12311,0.01784
1329.69640,0.01724
1328.26968,0.01659
1326.84297,0.01597
1325.41626,0.01543
1323.98954,0.01499
1322.56283,0.01464
1321.13612,0.01434
1319.70941,0.01409
1318.28269,0.01387
1316.85598,0.01370
1315.42927,0.01358
1314.00255,0.01354
1312.57584,0.01361
1311.14913,0.01379
1309.72242,0.01407
1308.29570,0.01448
1306.86899,0.01501
1305.44228,0.01566
1304.01556,0.01641
1302.58885,0.01722
1301.16214,0.01802
1299.73543,0.01879
1298.30871,0.01950
1296.88200,0.02019
1295.45529,0.02089
1294.02857,0.02163
1292.60186,0.02246
1291.17515,0.02345
1289.74844,0.02466
1288.32172,0.02612
1286.89501,0.02781
1285.46830,0.02968
1284.04158,0.03165
1282.61487,0.03364
1281.18816,0.03555
1279.76144,0.03733
1278.33473,0.03892
1276.90802,0.04032
1275.48131,0.04156
1274.05459,0.04270
1272.62788,0.04380
1271.20117,0.04489
1269.77445,0.04599
1268.34774,0.04708
1266.92103,0.04813
1265.49432,0.04911
1264.06760,0.04998
1262.64089,0.05077
1261.21418,0.05149
1259.78746,0.05220
1258.36075,0.05297
1256.93404,0.05386
1255.50733,0.05492
1254.08061,0.05618
1252.65390,0.05761
1251.22719,0.05911
1249.80047,0.06058
1248.37376,0.06195
1246.94705,0.06315
1245.52034,0.06410
1244.09362,0.06471
1242.66691,0.06498
1241.24020,0.06496
1239.81348,0.06473
1238.38677,0.06431
1236.96006,0.06371
1235.53335,0.06294
1234.10663,0.06202
1232.67992,0.06099
1231.25321,0.05985
1229.82649,0.05865
1228.39978,0.05745
1226.97307,0.05630
1225.54636,0.05521
1224.11964,0.05416
1222.69293,0.05317
1221.26622,0.05229
1219.83950,0.05160
1218.41279,0.05110
1216.98608,0.05079
1215.55937,0.05070
1214.13265,0.05083
1212.70594,0.05122
1211.27923,0.05188
1209.85251,0.05284
1208.42580,0.05411
1206.99909,0.05568
1205.57238,0.05750
1204.14566,0.05952
1202.71895,0.06170
1201.29224,0.06403
1199.86552,0.06649
1198.43881,0.06901
1197.01210,0.07153
1195.58539,0.07397
1194.15867,0.07630
1192.73196,0.07844
1191.30525,0.08031
1189.87853,0.08186
1188.45182,0.08306
1187.02511,0.08394
1185.59840,0.08452
1184.17168,0.08488
1182.74497,0.08510
1181.31826,0.08525
1179.89154,0.08539
1178.46483,0.08557
1177.03812,0.08580
1175.61141,0.08609
1174.18469,0.08639
1172.75798,0.08669
1171.33127,0.08698
1169.90455,0.08725
1168.47784,0.08752
1167.05113,0.08777
1165.62442,0.08805
1164.19770,0.08839
1162.77099,0.08887
1161.34428,0.08952
1159.91756,0.09036
1158.49085,0.09139
1157.06414,0.09252
1155.63743,0.09365
1154.21071,0.09469
1152.78400,0.09558
1151.35729,0.09630
1149.93057,0.09682
1148.50386,0.09712
1147.07715,0.09720
1145.65044,0.09708
1144.22372,0.09676
1142.79701,0.09625
1141.37030,0.09558
1139.94358,0.09476
1138.51687,0.09376
1137.09016,0.09250
1135.66344,0.09093
1134.23673,0.08903
1132.81002,0.08683
1131.38331,0.08441
1129.95659,0.08192
1128.52988,0.07953
1127.10317,0.07738
1125.67645,0.07554
1124.24974,0.07403
1122.82303,0.07285
1121.39632,0.07203
1119.96960,0.07162
1118.54289,0.07162
1117.11618,0.07205
1115.68946,0.07295
1114.26275,0.07435
1112.83604,0.07617
1111.40933,0.07827
1109.98261,0.08056
1108.55590,0.08297
1107.12919,0.08539
1105.70247,0.08773
1104.27576,0.08995
1102.84905,0.09215
1101.42234,0.09446
1099.99562,0.09704
1098.56891,0.10001
1097.14220,0.10347
1095.71548,0.10746
1094.28877,0.11190
1092.86206,0.11660
1091.43535,0.12131
1090.00863,0.12577
1088.58192,0.12985
1087.15521,0.13341
1085.72849,0.13635
1084.30178,0.13855
1082.87507,0.13997
1081.44836,0.14060
1080.02164,0.14044
1078.59493,0.13945
1077.16822,0.13756
1075.74150,0.13472
1074.31479,0.13094
1072.88808,0.12638
1071.46137,0.12116
1070.03465,0.11543
1068.60794,0.10940
1067.18123,0.10336
1065.75451,0.09758
1064.32780,0.09219
1062.90109,0.08716
1061.47438,0.08236
1060.04766,0.07766
1058.62095,0.07300
1057.19424,0.06838
1055.76752,0.06382
1054.34081,0.05938
1052.91410,0.05511
1051.48739,0.05112
1050.06067,0.04751
1048.63396,0.04438
1047.20725,0.04176
1045.78053,0.03962
1044.35382,0.03790
1042.92711,0.03655
1041.50040,0.03549
1040.07368,0.03470
1038.64697,0.03412
1037.22026,0.03363
1035.79354,0.03312
1034.36683,0.03248
1032.94012,0.03166
1031.51341,0.03061
1030.08669,0.02935
1028.65998,0.02794
1027.23327,0.02650
1025.80655,0.02508
1024.37984,0.02372
1022.95313,0.02242
1021.52642,0.02116
1020.09970,0.01991
1018.67299,0.01867
1017.24628,0.01742
1015.81956,0.01615
1014.39285,0.01489
1012.96614,0.01368
1011.53943,0.01253
1010.11271,0.01146
1008.68600,0.01051
1007.25929,0.00978
1005.83257,0.00933
1004.40586,0.00914
1002.97915,0.00912
1001.55244,0.00918
1000.12572,0.00929
998.69901,0.00941
997.27230,0.00958
995.84558,0.00981
994.41887,0.01014
992.99216,0.01056
991.56545,0.01103
990.13873,0.01152
988.71202,0.01206
987.28531,0.01264
985.85859,0.01322
984.43188,0.01376
983.00517,0.01423
981.57845,0.01461
980.15174,0.01486
978.72503,0.01498
977.29832,0.01498
975.87160,0.01493
974.44489,0.01488
973.01818,0.01482
971.59146,0.01470
970.16475,0.01450
968.73804,0.01422
967.31133,0.01385
965.88461,0.01339
964.45790,0.01283
963.03119,0.01220
961.60447,0.01152
960.17776,0.01084
958.75105,0.01014
957.32434,0.00943
955.89762,0.00870
954.47091,0.00798
953.04420,0.00733
951.61748,0.00678
950.19077,0.00631
948.76406,0.00584
947.33735,0.00529
945.91063,0.00470
944.48392,0.00412
943.05721,0.00358
941.63049,0.00305
940.20378,0.00251
938.77707,0.00197
937.35036,0.00146
935.92364,0.00102
934.49693,0.00069
933.07022,0.00046
931.64350,0.00028
930.21679,0.00015
928.79008,0.00006
927.36337,0.00001
925.93665,0.00000
924.50994,0.00003
923.08323,0.00014
921.65651,0.00031
920.22980,0.00058
918.80309,0.00096
917.37638,0.00146
915.94966,0.00199
914.52295,0.00252
913.09624,0.00306
911.66952,0.00367
910.24281,0.00432
908.81610,0.00492
907.38939,0.00542
905.96267,0.00582
904.53596,0.00608
903.10925,0.00618
901.68253,0.00615
900.25582,0.00604
898.82911,0.00588
897.40240,0.00566
895.97568,0.00537
894.54897,0.00498
893.12226,0.00450
891.69554,0.00397
890.26883,0.00348
888.84212,0.00309
887.41541,0.00280
885.98869,0.00258
884.56198,0.00241
883.13527,0.00232
881.70855,0.00228
880.28184,0.00230
878.85513,0.00240
877.42842,0.00256
876.00170,0.00278
874.57499,0.00300
873.14828,0.00328
871.72156,0.00363
870.29485,0.00407
868.86814,0.00460
867.44143,0.00523
866.01471,0.00601
864.58800,0.00698
863.16129,0.00824
861.73457,0.00990
860.30786,0.01200
858.88115,0.01443
857.45444,0.01705
856.02772,0.01971
854.60101,0.02218
853.17430,0.02418
851.74758,0.02547
850.32087,0.02599
848.89416,0.02589
847.46745,0.02540
846.04073,0.02474
844.61402,0.02410
843.18731,0.02364
841.76059,0.02356
840.33388,0.02403
838.90717,0.02508
837.48046,0.02661
836.05374,0.02852
834.62703,0.03075
833.20032,0.03321
831.77360,0.03573
830.34689,0.03817
828.92018,0.04046
827.49346,0.04260
826.06675,0.04453
824.64004,0.04616
823.21333,0.04745
821.78661,0.04830
820.35990,0.04862
818.93319,0.04836
817.50647,0.04760
816.07976,0.04647
814.65305,0.04505
813.22634,0.04340
811.79962,0.04163
810.37291,0.03991
808.94620,0.03837
807.51948,0.03705
806.09277,0.03597
804.66606,0.03512
803.23935,0.03453
801.81263,0.03422
800.38592,0.03416
798.95921,0.03426
797.53249,0.03439
796.10578,0.03443
794.67907,0.03437
793.25236,0.03427
791.82564,0.03421
790.39893,0.03421
788.97222,0.03437
787.54550,0.03484
786.11879,0.03577
784.69208,0.03719
783.26537,0.03905
781.83865,0.04125
780.41194,0.04363
778.98523,0.04604
777.55851,0.04832
776.13180,0.05034
774.70509,0.05216
773.27838,0.05420
771.85166,0.05710
770.42495,0.06139
768.99824,0.06707
767.57152,0.07325
766.14481,0.07835
764.71810,0.08081
763.29139,0.08008
761.86467,0.07679
760.43796,0.07215
759.01125,0.06715
757.58453,0.06224
756.15782,0.05746
754.73111,0.05259
753.30440,0.04743
751.87768,0.04197
750.45097,0.03638
749.02426,0.03091
747.59754,0.02582
746.17083,0.02135
744.74412,0.01769
743.31741,0.01483
741.89069,0.01261
740.46398,0.01085
739.03727,0.00942
737.61055,0.00828
736.18384,0.00739
734.75713,0.00670
733.33042,0.00615
731.90370,0.00569
730.47699,0.00525
729.05028,0.00475
727.62356,0.00410
726.19685,0.00330
724.77014,0.00242
723.34343,0.00155
721.91671,0.00078
720.49000,0.00021
719.06329,0.00000
717.63657,0.00030
716.20986,0.00144
714.78315,0.00363
713.35644,0.00707
711.92972,0.01195
710.50301,0.01832
709.07630,0.02598
707.64958,0.03437
706.22287,0.04250
704.79616,0.04899
703.36945,0.05233
701.94273,0.05149
700.51602,0.04645
699.08931,0.03833
697.66259,0.02895
696.23588,0.02013
694.80917,0.01309
693.38246,0.00820
691.95574,0.00520
690.52903,0.00353
689.10232,0.00267
687.67560,0.00226
686.24889,0.00208
684.82218,0.00195
683.39547,0.00175
681.96875,0.00152
680.54204,0.00138
679.11533,0.00141
677.68861,0.00152
676.26190,0.00149
674.83519,0.00120
673.40847,0.00077
671.98176,0.00045
670.55505,0.00034
669.12834,0.00037
667.70162,0.00034
666.27491,0.00020
664.84820,0.00007
663.42148,0.00003
661.99477,0.00004
660.56806,0.00003
659.14135,0.00000
657.71463,0.00000
656.28792,0.00000
654.86121,0.00000
653.43449,0.00000
652.00778,0.00000
650.58107,0.00001
649.15436,0.00000
